BEGIN:PULSE:PARAMS
NBinsOn=128
NBinsOff=128
SystemTemp=0.090043
Field=-0.001
END:PULSE:PARAMS
27102261.1858361, 0.115984653042235, 1.81298982971271E-9
27102265.0916723, 0.127623629304853, 1.80040782824324E-9
27102268.9975084, 0.139361135467683, 1.78519888473147E-9
27102272.9033445, 0.149767211375022, 1.76973802866829E-9
27102276.8091807, 0.158484255198694, 1.75568032040672E-9
27102280.7150168, 0.165623249621998, 1.74319557523668E-9
27102284.6208529, 0.171690851928403, 1.73229690828085E-9
27102288.5266891, 0.177050881992711, 1.7224569894113E-9
27102292.4325252, 0.181673794805038, 1.71377648145286E-9
27102296.3383613, 0.185737206177628, 1.70591490219436E-9
27102300.2441975, 0.189410471118786, 1.69879117633191E-9
27102304.1500336, 0.192790650271298, 1.69222203280037E-9
27102308.0558697, 0.195847332825639, 1.68629416767051E-9
27102311.9617059, 0.198661012066112, 1.68074459718346E-9
27102315.867542, 0.201288140786506, 1.6755026359377E-9
27102319.7733781, 0.203729662696413, 1.67071357224043E-9
27102323.6792143, 0.20595359867192, 1.66626107325013E-9
27102327.5850504, 0.20810230685139, 1.66208807966678E-9
27102331.4908865, 0.210134285858441, 1.65806156667451E-9
27102335.3967227, 0.211929011042029, 1.65432631160174E-9
27102339.3025588, 0.21376920582137, 1.65080175012336E-9
27102343.2083949, 0.215378915075486, 1.64748362408266E-9
27102347.1142311, 0.216951105034898, 1.6443612029247E-9
27102351.0200672, 0.218507233839837, 1.64130180248616E-9
27102354.9259033, 0.220041586764693, 1.63846195260799E-9
27102358.8317395, 0.221326118303773, 1.63570505162268E-9
27102362.7375756, 0.222645212350357, 1.63317417359594E-9
27102366.6434117, 0.223887626227756, 1.63070665694117E-9
27102370.5492479, 0.225138534946037, 1.62828393609506E-9
27102374.455084, 0.22626280362799, 1.62600837714512E-9
27102378.3609201, 0.227384211098481, 1.62386805725253E-9
27102382.2667563, 0.228488638997688, 1.62179092840563E-9
27102386.1725924, 0.229507322949623, 1.61980935259548E-9
27102390.0784285, 0.230519133079979, 1.61786695182713E-9
27102393.9842647, 0.23144582001539, 1.61604292781554E-9
27102397.8901008, 0.232320632511735, 1.6142436011129E-9
27102401.795937, 0.233204141517463, 1.61243149994012E-9
27102405.7017731, 0.234086808665605, 1.61070796842706E-9
27102409.6076092, 0.234985346325224, 1.60909378637851E-9
27102413.5134454, 0.23568215420574, 1.60748369216041E-9
27102417.4192815, 0.236471732532076, 1.60599606252951E-9
27102421.3251176, 0.237275324034163, 1.60450570767832E-9
27102425.2309538, 0.23801835429989, 1.60313611415163E-9
27102429.1367899, 0.238727653578646, 1.60169992305388E-9
27102433.042626, 0.239393153672003, 1.60040595439051E-9
27102436.9484622, 0.240012047108017, 1.59909631571041E-9
27102440.8542983, 0.240795872477702, 1.59793809708319E-9
27102444.7601344, 0.241350006825791, 1.59664600200877E-9
27102448.6659706, 0.241936215631998, 1.59551350264813E-9
27102452.5718067, 0.242544458157092, 1.59437521219436E-9
27102456.4776428, 0.243159372580343, 1.59326553655372E-9
27102460.383479, 0.243667573248321, 1.59224766677192E-9
27102464.2893151, 0.24429661861429, 1.59114701842353E-9
27102468.1951512, 0.244781724585448, 1.59021550405996E-9
27102472.1009874, 0.245324844488967, 1.58916459098203E-9
27102476.0068235, 0.245847394100636, 1.58812083160739E-9
27102479.9126596, 0.246337174745762, 1.58727362874683E-9
27102483.8184958, 0.246779697054335, 1.58630702717192E-9
27102487.7243319, 0.24728020101152, 1.58538982021492E-9
27102491.630168, 0.247756224350548, 1.58446324531315E-9
27102495.5360042, 0.248151590309867, 1.58375111118368E-9
27102499.4418403, 0.248600697965568, 1.58284991489594E-9
27102503.3476764, 0.249053219278514, 1.58207510069959E-9
27102507.2535126, 0.249543182749075, 1.58124935894889E-9
27102511.1593487, 0.249906692331741, 1.58053262601017E-9
27102515.0651848, 0.250386492253255, 1.57980022305472E-9
27102518.971021, 0.250690704379528, 1.57895812998223E-9
27102522.8768571, 0.251125225134277, 1.57818910687901E-9
27102526.7826932, 0.251357284741694, 1.5775098457194E-9
27102530.6885294, 0.251806482628851, 1.57676671220903E-9
27102534.5943655, 0.252188110825366, 1.57613633468854E-9
27102538.5002016, 0.252453909195999, 1.57547734235491E-9
27102542.4060378, 0.252893346010901, 1.57482754763979E-9
27102546.3118739, 0.253223531879107, 1.57420943361064E-9
27102550.21771, 0.253547944182489, 1.57361618721673E-9
27102554.1235462, 0.253789630520689, 1.5730464458479E-9
27102558.0293823, 0.254199660081558, 1.57244297987787E-9
27102561.9352184, 0.254427407586772, 1.57183883260276E-9
27102565.8410546, 0.254763153273268, 1.57121135062884E-9
27102569.7468907, 0.255056947378082, 1.5707048003057E-9
27102573.6527268, 0.255269788144662, 1.57021885946108E-9
27102577.558563, 0.255657175663693, 1.56971605631585E-9
27102581.4643991, 0.255918846646279, 1.56915874876464E-9
27102585.3702352, 0.256212111765292, 1.56861608927254E-9
27102589.2760714, 0.256491248968027, 1.56815484573687E-9
27102593.1819075, 0.256686144106072, 1.56759770851193E-9
27102597.0877436, 0.257042906201389, 1.56709899319715E-9
27102600.9935798, 0.257244730475782, 1.56663945292418E-9
27102604.8994159, 0.257433773715663, 1.56614703968134E-9
27102608.805252, 0.25775636267257, 1.56569397180658E-9
27102612.7110882, 0.257981665381449, 1.56526083210525E-9
27102616.6169243, 0.258172356640277, 1.56490314694096E-9
27102620.5227604, 0.258439958868602, 1.56436593788946E-9
27102624.4285966, 0.258641847217452, 1.5639356937347E-9
27102628.3344327, 0.258785297992184, 1.56353338308801E-9
27102632.2402688, 0.259070694794179, 1.56319818099119E-9
27102636.146105, 0.259448929664435, 1.56282993559825E-9
27102640.0519411, 0.259526418635709, 1.56243580061246E-9
27102643.9577772, 0.259728681573828, 1.5620191825592E-9
27102647.8636134, 0.260003695775802, 1.56161056984057E-9
27102651.7694495, 0.260184742249397, 1.5612489671721E-9
27102655.6752856, 0.260394038375388, 1.56090899593976E-9
27102659.5811218, 0.260587291548096, 1.56065980860864E-9
27102663.4869579, 0.260722233445222, 1.56031132106286E-9
27102667.392794, 0.260928660731718, 1.55991957064483E-9
27102671.2986302, 0.261095042606006, 1.55956341841696E-9
27102675.2044663, 0.261254244295042, 1.55916996473625E-9
27102679.1103024, 0.261437180321255, 1.55887921779556E-9
27102683.0161386, 0.261590548103975, 1.55859664651577E-9
27102686.9219747, 0.261796173776952, 1.55828171324493E-9
27102690.8278108, 0.261992072100015, 1.55796115920722E-9
27102694.733647, 0.262227845439769, 1.55758218325935E-9
27102698.6394831, 0.26233532144501, 1.55728751881448E-9
27102702.5453192, 0.262472331033406, 1.55706541336009E-9
27102706.4511554, 0.262702649912412, 1.5567997043809E-9
27102710.3569915, 0.262806068099192, 1.55653586899067E-9
27102714.2628276, 0.262921513980807, 1.55629247275269E-9
27102718.1686638, 0.263096855190925, 1.55597924274453E-9
27102722.0744999, 0.263162172438191, 1.55569224298176E-9
27102725.980336, 0.263374695320656, 1.55537901297361E-9
27102729.8861722, 0.263442724974853, 1.5551253971595E-9
27102733.7920083, 0.263620255625965, 1.55492901097168E-9
27102737.6978444, 0.263752569575121, 1.5546469506707E-9
27102741.6036806, 0.264026244663572, 1.55445925112258E-9
27102745.5095167, 0.264104127740787, 1.55423731599445E-9
27102749.4153529, 0.264163810513117, 1.55394895362153E-9
27102753.321189, 0.26428951203735, 1.55369959596414E-9
27102757.2270251, 0.264458404670852, 1.55352467088618E-9
27102761.1328613, 0.262796085411036, 0
27102765.0386974, 0.261833088897915, 0
27102768.9445335, 0.260719154010786, 0
27102772.8503697, 0.259652484905683, 0
27102776.7562058, 0.258541580902156, 0
27102780.6620419, 0.25749958260155, 0
27102784.5678781, 0.256332932817735, 0
27102788.4737142, 0.255223758321126, 0
27102792.3795503, 0.254129993456708, 0
27102796.2853865, 0.252906943088265, 0
27102800.1912226, 0.251728931811076, 0
27102804.0970587, 0.250599227944201, 0
27102808.0028949, 0.249407358218423, 0
27102811.908731, 0.248103295938272, 0
27102815.8145671, 0.246950108430885, 0
27102819.7204033, 0.245734254156373, 0
27102823.6262394, 0.244450019572919, 0
27102827.5320755, 0.243297977006523, 0
27102831.4379117, 0.241956956468124, 0
27102835.3437478, 0.240752918123864, 0
27102839.2495839, 0.239457762082873, 0
27102843.1554201, 0.238218235543221, 0
27102847.0612562, 0.236952853786389, 0
27102850.9670923, 0.23556812895552, 0
27102854.8729285, 0.234298215758036, 0
27102858.7787646, 0.233054329601002, 0
27102862.6846007, 0.231726240632112, 0
27102866.5904369, 0.230366030088089, 0
27102870.496273, 0.229078316142288, 0
27102874.4021091, 0.227711253274098, 0
27102878.3079453, 0.226363968888014, 0
27102882.2137814, 0.224934839767082, 0
27102886.1196175, 0.223583330703776, 0
27102890.0254537, 0.222210889124672, 0
27102893.9312898, 0.220844179811324, 0
27102897.8371259, 0.219457128453952, 0
27102901.7429621, 0.218058270086936, 0
27102905.6487982, 0.21657376878954, 0
27102909.5546343, 0.215222030127257, 0
27102913.4604705, 0.213784433666698, 0
27102917.3663066, 0.212357410854594, 0
27102921.2721427, 0.210934022258623, 0
27102925.1779789, 0.209406109506154, 0
27102929.083815, 0.207978935785822, 0
27102932.9896511, 0.206510028346042, 0
27102936.8954873, 0.205108249924775, 0
27102940.8013234, 0.203571853736149, 0
27102944.7071595, 0.202085683032536, 0
27102948.6129957, 0.200599281121366, 0
27102952.5188318, 0.199019786272323, 0
27102956.4246679, 0.197493548971441, 0
27102960.3305041, 0.196028077426802, 0
27102964.2363402, 0.194495109355471, 0
27102968.1421763, 0.192907376832766, 0
27102972.0480125, 0.19140864808171, 0
27102975.9538486, 0.189819494806301, 0
27102979.8596847, 0.188274917831485, 0
27102983.7655209, 0.186772597706412, 0
27102987.671357, 0.185215984602464, 0
27102991.5771931, 0.183532429622116, 0
27102995.4830293, 0.182003052332243, 0
27102999.3888654, 0.180438768580666, 0
27103003.2947015, 0.178831864893837, 0
27103007.2005377, 0.177227756723453, 0
27103011.1063738, 0.175646002562059, 0
27103015.0122099, 0.174066574842707, 0
27103018.9180461, 0.17243839304305, 0
27103022.8238822, 0.170877089954118, 0
27103026.7297183, 0.169235310204702, 0
27103030.6355545, 0.167663703578181, 0
27103034.5413906, 0.166125538087287, 0
27103038.4472267, 0.1645037214816, 0
27103042.3530629, 0.162932858974154, 0
27103046.258899, 0.16137164194926, 0
27103050.1647351, 0.159744559029434, 0
27103054.0705713, 0.158214422086958, 0
27103057.9764074, 0.15669841190342, 0
27103061.8822436, 0.155114347268183, 0
27103065.7880797, 0.153577950213188, 0
27103069.6939158, 0.152055944516135, 0
27103073.599752, 0.150544658806135, 0
27103077.5055881, 0.149069635062821, 0
27103081.4114242, 0.147595342101519, 0
27103085.3172604, 0.14615035697941, 0
27103089.2230965, 0.144699561889964, 0
27103093.1289326, 0.143284128615312, 0
27103097.0347688, 0.141857115849472, 0
27103100.9406049, 0.140581628213046, 0
27103104.846441, 0.139232183869935, 0
27103108.7522772, 0.137942252276367, 0
27103112.6581133, 0.136707181620314, 0
27103116.5639494, 0.135427867242342, 0
27103120.4697856, 0.134180146342878, 0
27103124.3756217, 0.132920959526122, 0
27103128.2814578, 0.131703664852201, 0
27103132.187294, 0.13051079802141, 0
27103136.0931301, 0.12940458139251, 0
27103139.9989662, 0.12833987530397, 0
27103143.9048024, 0.127368187387926, 0
27103147.8106385, 0.126331805073563, 0
27103151.7164746, 0.125389534801536, 0
27103155.6223108, 0.124354384659827, 0
27103159.5281469, 0.123442200718984, 0
27103163.433983, 0.122467441727635, 0
27103167.3398192, 0.121575788292851, 0
27103171.2456553, 0.12076244864918, 0
27103175.1514914, 0.119922306806839, 0
27103179.0573276, 0.119098137357603, 0
27103182.9631637, 0.11827570075512, 0
27103186.8689998, 0.117517012009896, 0
27103190.774836, 0.116849463959037, 0
27103194.6806721, 0.116167685902249, 0
27103198.5865082, 0.115434613841705, 0
27103202.4923444, 0.114795049427415, 0
27103206.3981805, 0.114162788096153, 0
27103210.3040166, 0.113490200720422, 0
27103214.2098528, 0.112965730426579, 0
27103218.1156889, 0.112258788143545, 0
27103222.021525, 0.111719356944429, 0
27103225.9273612, 0.111149405543998, 0
27103229.8331973, 0.110618240716692, 0
27103233.7390334, 0.110121714103588, 0
27103237.6448696, 0.109632794448859, 0
27103241.5507057, 0.109117132790008, 0
27103245.4565418, 0.108674008153071, 0
27103249.362378, 0.108237454343404, 0
27103253.2682141, 0.107729407306715, 0
27103257.1740502, 0.107360579703476, 0
BEGIN:PULSE:PARAMS
NBinsOn=128
NBinsOff=128
SystemTemp=0.089972
Field=-0.001
END:PULSE:PARAMS
27108354.4958361, 0.115837967034763, 1.78349955576824E-9
27108358.4016723, 0.127174021541776, 1.77133121376634E-9
27108362.3075084, 0.138828638894599, 1.75632250622315E-9
27108366.2133445, 0.149107629393807, 1.74127025653442E-9
27108370.1191807, 0.157762324358947, 1.72736461667857E-9
27108374.0250168, 0.164927090467842, 1.71512184798601E-9
27108377.9308529, 0.170964716173012, 1.70426230187078E-9
27108381.8366891, 0.176287438007215, 1.69468792412137E-9
27108385.7425252, 0.18089812375247, 1.68599552797142E-9
27108389.6483613, 0.185007579206477, 1.67823709396677E-9
27108393.5541975, 0.188702967405289, 1.67130596072761E-9
27108397.4600336, 0.192032445001915, 1.66482645067257E-9
27108401.3658697, 0.195085372737694, 1.65882185378645E-9
27108405.2717059, 0.197848232808905, 1.65342060252185E-9
27108409.177542, 0.200465419601178, 1.648376801894E-9
27108413.0833781, 0.202876197479536, 1.6435952667475E-9
27108416.9892143, 0.205136271384106, 1.63907228418622E-9
27108420.8950504, 0.207275392549099, 1.63492649811839E-9
27108424.8008865, 0.209237271447816, 1.63107436838103E-9
27108428.7067227, 0.211076803242984, 1.62742357887485E-9
27108432.6125588, 0.212865469072227, 1.62385362924355E-9
27108436.5183949, 0.214506924051386, 1.62064011764096E-9
27108440.4242311, 0.216090087008992, 1.61759756802847E-9
27108444.3300672, 0.217653228543054, 1.61464784081929E-9
27108448.2359033, 0.219003338567195, 1.61186586900809E-9
27108452.1417395, 0.220416579709166, 1.60917790097624E-9
27108456.0475756, 0.221686774722885, 1.60660131982836E-9
27108459.9534117, 0.222913514434964, 1.60426675200112E-9
27108463.8592479, 0.224147796048331, 1.60188155377206E-9
27108467.765084, 0.225301251472422, 1.59956588796149E-9
27108471.6709201, 0.226288213854845, 1.59735722106673E-9
27108475.5767563, 0.22742837099032, 1.5953007829134E-9
27108479.4825924, 0.228468145183179, 1.59331438348257E-9
27108483.3884285, 0.229465501236785, 1.59140376088644E-9
27108487.2942647, 0.230416697034854, 1.5895376930439E-9
27108491.2001008, 0.231360891646093, 1.58776292869262E-9
27108495.1059369, 0.232174886158407, 1.58608790623289E-9
27108499.0117731, 0.233089755842944, 1.58450519987245E-9
27108502.9176092, 0.233875702354686, 1.5829753178979E-9
27108506.8234454, 0.234664474876123, 1.58153758325463E-9
27108510.7292815, 0.23544273251163, 1.5800222153286E-9
27108514.6351176, 0.23611978557272, 1.57855916548443E-9
27108518.5409538, 0.236899011220592, 1.57713290706557E-9
27108522.4467899, 0.237597944291646, 1.57583626247533E-9
27108526.352626, 0.238283333858702, 1.57449826972362E-9
27108530.2584622, 0.239037008082263, 1.57322660279828E-9
27108534.1642983, 0.239647794654031, 1.57204843334827E-9
27108538.0701344, 0.24029925174153, 1.57074976354196E-9
27108541.9759706, 0.240839204632209, 1.5696180052936E-9
27108545.8818067, 0.241400565213615, 1.56847443328482E-9
27108549.7876428, 0.241911671293138, 1.56739347420628E-9
27108553.693479, 0.242588171122853, 1.56641107564325E-9
27108557.5993151, 0.243128245912868, 1.56533652974893E-9
27108561.5051512, 0.243651682010183, 1.56441674411613E-9
27108565.4109874, 0.244147795488407, 1.56339907303985E-9
27108569.3168235, 0.244681695089829, 1.56249903326375E-9
27108573.2226596, 0.245147695374018, 1.56155612641413E-9
27108577.1284958, 0.245625421741641, 1.56063701585336E-9
27108581.0343319, 0.246025353533903, 1.55975975975807E-9
27108584.940168, 0.246584530177602, 1.55892351428826E-9
27108588.8460042, 0.246941560518011, 1.55811325909136E-9
27108592.7518403, 0.247379548222922, 1.55735059647217E-9
27108596.6576764, 0.247820800834713, 1.55651637621842E-9
27108600.5635126, 0.248284553826523, 1.55572097260606E-9
27108604.4693487, 0.248701212804401, 1.55495004035457E-9
27108608.3751848, 0.249078227554832, 1.55418771527138E-9
27108612.281021, 0.249491881238463, 1.553391805355E-9
27108616.1868571, 0.249914606446136, 1.55264433185635E-9
27108620.0926932, 0.250218568399076, 1.55196234034403E-9
27108623.9985294, 0.250555285862426, 1.55127191043141E-9
27108627.9043655, 0.2508759650456, 1.55069506138684E-9
27108631.8102016, 0.251250836370884, 1.55002049566679E-9
27108635.7160378, 0.251608053736152, 1.54943655836597E-9
27108639.6218739, 0.251971384284962, 1.54869296653145E-9
27108643.52771, 0.252279661110613, 1.54817316107292E-9
27108647.4335462, 0.252630021871115, 1.54764272323E-9
27108651.3393823, 0.252834103503112, 1.54699921082306E-9
27108655.2452184, 0.253262141371754, 1.54636548696046E-9
27108659.1510546, 0.253496366481442, 1.54587707235104E-9
27108663.0568907, 0.25381144032893, 1.54535541044444E-9
27108666.9627268, 0.254129629749099, 1.5447989823286E-9
27108670.868563, 0.254388489975616, 1.54428727773435E-9
27108674.7743991, 0.254695957399359, 1.54378856827657E-9
27108678.6802352, 0.254953696149544, 1.54332935053219E-9
27108682.5860714, 0.255227276017096, 1.54278304849671E-9
27108686.4919075, 0.255461501387567, 1.54230762902376E-9
27108690.3977436, 0.25568848997631, 1.54180807572595E-9
27108694.3035798, 0.256006860944495, 1.54136944767831E-9
27108698.2094159, 0.256289892394494, 1.54087597002871E-9
27108702.115252, 0.256388025084341, 1.5404408861092E-9
27108706.0210882, 0.256657133998232, 1.54006217070369E-9
27108709.9269243, 0.256916650264433, 1.53963704409653E-9
27108713.8327604, 0.257234701467458, 1.53920601060916E-9
27108717.7385966, 0.257344760403454, 1.53875354358503E-9
27108721.6444327, 0.257640635815654, 1.53835339464276E-9
27108725.5502688, 0.257812842878494, 1.53796100902877E-9
27108729.456105, 0.25808409662583, 1.53757520536701E-9
27108733.3619411, 0.258210150270748, 1.53714400311164E-9
27108737.2677772, 0.258454450674133, 1.53682064361211E-9
27108741.1736134, 0.258621226223369, 1.53646639956747E-9
27108745.0794495, 0.258882122424222, 1.53614827187613E-9
27108748.9852856, 0.259018887026225, 1.53579824703165E-9
27108752.8911218, 0.259208610264233, 1.53542695741841E-9
27108756.7969579, 0.259436339127969, 1.5351154116793E-9
27108760.702794, 0.259648332580291, 1.5347957650759E-9
27108764.6086302, 0.259771667799288, 1.53442785082278E-9
27108768.5144663, 0.260014177052185, 1.53412069305183E-9
27108772.4203024, 0.26016277184701, 1.5338253490413E-9
27108776.3261386, 0.260283421303864, 1.53345287805202E-9
27108780.2319747, 0.260455240670866, 1.53315888418553E-9
27108784.1378108, 0.26065640046498, 1.5328664092311E-9
27108788.043647, 0.260774403291231, 1.53260853171791E-9
27108791.9494831, 0.26093916845011, 1.53233411494012E-9
27108795.8553192, 0.261083533199608, 1.53201750616083E-9
27108799.7611554, 0.261296790008006, 1.5317528779274E-9
27108803.6669915, 0.26145165820145, 1.53145247087669E-9
27108807.5728276, 0.261612230091955, 1.53120016270769E-9
27108811.4786638, 0.261768761309609, 1.53090532500118E-9
27108815.3844999, 0.261916908869186, 1.5306621303045E-9
27108819.2903361, 0.262115841006057, 1.53036982411808E-9
27108823.1961722, 0.262202811919131, 1.53007363626752E-9
27108827.1020083, 0.262329442485125, 1.52987567139646E-9
27108831.0078444, 0.262508756998802, 1.5295766144898E-9
27108834.9136806, 0.262620628102894, 1.52932801921693E-9
27108838.8195167, 0.262743099477574, 1.5291167216734E-9
27108842.7253529, 0.262900029944939, 1.52882930975915E-9
27108846.631189, 0.262974291948373, 1.52858476491843E-9
27108850.5370251, 0.263215574919749, 1.52834798340599E-9
27108854.4428613, 0.261520896128191, 0
27108858.3486974, 0.260366689402935, 0
27108862.2545335, 0.259319041580158, 0
27108866.1603697, 0.2582410726495, 0
27108870.0662058, 0.257167153289731, 0
27108873.9720419, 0.256044292095433, 0
27108877.8778781, 0.254833084162475, 0
27108881.7837142, 0.253786219629523, 0
